# Marker      S (mm)         S (m)        2005        2006        2007        2008        2009        2010        2011        2012
           2  2994587.0      2994.6       0.000       0.000       0.000       0.000       0.000       0.000       0.000       0.000
           3  2983220.8      2983.2       0.550       0.620       0.640       0.780       0.740       0.640       1.010       1.050
           4  2968409.7      2968.4       0.440       0.440       0.490       0.670       0.600       0.420       0.870       0.910
           5  2953593.8      2953.6       0.300       0.240       0.320       0.500       0.460       0.220       0.810       0.890
           6  2940185.0      2940.2       0.140      -0.010       0.100       0.310       0.270       0.030       0.580       0.640
           7  2926128.7      2926.1       0.070      -0.090       0.010       0.200       0.140      -0.070       0.540       0.540
           8  2914421.3      2914.4      -0.020      -0.110      -0.090       0.230       0.090      -0.150       0.710       0.620
           9  2895987.0      2896.0      -0.120      -0.090      -0.210       0.260      -0.010      -0.190       0.190      -0.220
          10  2880695.8      2880.7      -0.210      -0.230      -0.390       0.130      -0.140      -0.380       0.310      -0.010
          11  2862960.5      2863.0      -0.690      -0.700      -0.850      -0.320      -0.570      -0.880      -0.160      -0.430
          12  2855687.5      2855.7      -0.860      -0.880      -1.080      -0.520      -0.790      -1.160      -0.390      -0.710
          13  2845414.5      2845.4      -0.900      -1.010      -1.170      -0.540      -0.850      -1.270      -0.470      -0.750
          14  2815616.8      2815.6      -1.290      -1.450      -1.610      -1.000      -1.290      -1.750      -0.960      -1.210
          15  2798947.3      2798.9      -1.270      -1.440      -1.630      -0.980      -1.310      -1.790      -1.010      -1.220
          16  2783777.5      2783.8      -0.740      -0.900      -1.050      -0.360      -0.650      -1.180      -0.440      -0.690
          17  2767766.2      2767.8      -1.850      -2.100      -2.320      -1.640      -1.990      -2.620      -2.070      -2.370
          18  2752979.7      2753.0      -1.910      -2.240      -2.470      -1.770      -2.090      -2.720      -2.440      -2.770
          19  2736434.0      2736.4      -1.980      -2.290      -2.560      -1.850      -2.170      -2.830      -2.280      -2.570
          20  2720281.7      2720.3      -1.790      -2.090      -2.350      -1.670      -1.950      -2.700      -1.950      -2.330
          21  2703629.5      2703.6      -1.790      -2.100      -2.400      -1.790      -2.030      -2.760      -2.300      -2.750
          22  2687224.7      2687.2      -1.880      -2.240      -2.520      -1.980      -2.140      -2.880      -2.540      -3.090
          23  2668998.7      2669.0      -1.640      -2.050      -2.260      -1.740      -1.870      -2.750      -2.330      -2.970
          24  2655772.5      2655.8      -2.090      -2.540      -2.830      -2.380      -2.470      -3.300      -3.450      -4.050
          25  2643799.5      2643.8      -2.460      -2.950      -3.250      -2.820      -2.880      -3.800      -4.110      -4.720
          26  2632068.7      2632.1      -2.350      -2.850      -3.150      -2.760      -2.810      -3.690      -3.930      -4.490
          27  2622095.7      2622.1      -2.430      -2.940      -3.270      -2.860      -2.960      -3.840      -3.820      -4.440
          28  2606826.0      2606.8      -1.810      -2.310      -2.660      -2.230      -2.320      -3.290      -2.580      -3.180
          29  2591643.5      2591.6      -2.080      -2.610      -2.940      -2.560      -2.650      -3.490      -2.700      -3.300
          30  2574960.8      2575.0      -2.390      -2.910      -3.220      -2.840      -2.900      -3.730      -3.070      -3.650
          31  2560697.8      2560.7      -2.480      -2.980      -3.300      -2.930      -2.960      -3.850      -3.170      -3.610
          32  2542434.5      2542.4      -2.890      -3.480      -3.800      -3.480      -3.590      -4.410      -3.630      -4.090
          33  2527986.5      2528.0      -2.920      -3.500      -3.840      -3.610      -3.670      -4.430      -3.790      -4.310
          34  2513038.5      2513.0      -2.900      -3.580      -3.920      -3.730      -3.780      -4.560      -3.740      -4.400
          35  2494090.8      2494.1      -2.660      -3.390      -3.660      -3.600      -3.550      -4.480      -3.900      -4.510
          36  2478421.3      2478.4      -2.970      -3.820      -4.040      -4.080      -4.070      -4.870      -4.280      -4.830
          37  2462251.5      2462.3      -2.680      -3.570      -3.750      -3.830      -3.770      -4.510      -4.030      -4.570
          38  2446240.2      2446.2      -2.360      -3.270      -3.450      -3.610      -3.500      -4.330      -3.980      -4.520
          39  2429574.0      2429.6      -2.780      -3.730      -3.970      -4.200      -4.090      -4.950      -4.610      -5.250
          40  2413907.8      2413.9      -2.820      -3.800      -4.080      -4.350      -4.210      -5.090      -4.720      -5.410
          41  2397672.8      2397.7      -3.040      -4.060      -4.320      -4.680      -4.540      -5.440      -5.200      -5.940
          42  2381713.5      2381.7      -3.130      -4.270      -4.520      -5.010      -4.880      -5.790      -6.050      -6.920
          43  2363475.5      2363.5      -3.650      -4.980      -5.060      -5.820      -5.550      -6.490      -6.170      -6.990
          44  2351252.8      2351.3      -4.160      -5.610      -5.740      -6.550      -6.230      -7.170      -7.050      -7.910
          45  2338030.0      2338.0      -4.570      -6.150      -6.310      -7.190      -6.890      -7.850      -7.940      -8.800
          46  2325104.3      2325.1      -4.900      -6.530      -6.700      -7.650      -7.350      -8.310      -8.420      -9.360
          47  2309752.8      2309.8      -5.160      -6.830      -7.000      -7.990      -7.710      -8.700      -8.840      -9.800
          48  2293401.0      2293.4      -5.660      -7.390      -7.560      -8.710      -8.420      -9.450      -9.630     -10.630
          49  2282475.3      2282.5      -5.270      -6.970      -7.170      -8.420      -8.100      -9.140      -9.370     -10.380
          50  2275549.5      2275.5      -5.600      -7.310      -7.520      -8.900      -8.570      -9.630      -9.970     -10.950
          51  2254898.0      2254.9     999.000     999.000     999.000     999.000     999.000     999.000     999.000     -14.090
          52  2249698.0      2249.7      -6.540      -8.330      -8.610     -10.040      -9.720     -10.830     -11.370     -12.250
          53  2242772.0      2242.8      -6.620      -8.360      -8.730     -10.060      -9.740     -10.860     -11.370     -12.250
          54  2228920.5      2228.9      -7.420      -9.230      -9.690     -11.020     -10.750     -11.860     -12.350     -13.310
          55  2215494.8      2215.5      -7.760      -9.520     -10.130     -11.440     -11.170     -12.250     -12.640     -13.550
          56  2200643.0      2200.6      -8.360     -10.120     -10.760     -12.090     -11.860     -12.940     -13.260     -14.200
          57  2186717.3      2186.7      -8.660     -10.380     -11.070     -12.410     -12.250     -13.280     -13.550     -14.490
          58  2174494.5      2174.5      -8.960     -10.730     -11.450     -12.760     -12.660     -13.680     -13.790     -14.750
          59  2160271.8      2160.3      -8.860     -10.620     -11.430     -12.720     -12.620     -13.760     -13.850     -14.890
          60  2142534.0      2142.5      -9.030     -10.680     -11.630     -12.960     -12.870     -14.000     -16.640     -17.950
          61  2127074.8      2127.1      -9.140     -10.810     -11.830     -13.140     -13.130     -14.060     -15.250     -16.280
          62  2111339.5      2111.3      -9.510     -11.210     -12.240     -13.610     -13.660     -14.440     -15.720     -16.800
          63  2094173.3      2094.2      -9.860     -11.630     -12.560     -14.070     -14.060     -14.950     -17.740     -19.010
          64  2079007.0      2079.0     -10.570     -12.310     -13.310     -14.980     -15.010     -15.830     -20.020     -21.320
          65  2062995.9      2063.0     -12.000     -13.800     -14.850     -16.660     -16.740     -17.620     -21.910     -23.160
          66  2046826.3      2046.8     -12.680     -14.570     -15.610     -17.510     -17.750     -18.780     -22.580     -23.860
          67  2030735.8      2030.7     -13.010     -14.980     -15.950     -17.940     -18.160     -19.420     -22.610     -23.860
          68  2014645.4      2014.6     -13.910     -16.030     -16.980     -19.180     -19.350     -20.690     -23.280     -24.760
          69  1999479.1      1999.5     -14.990     -17.080     -18.130     -20.370     -20.670     -21.940     -24.410     -25.740
          70  1982312.9      1982.3     -15.820     -17.980     -19.070     -21.360     -21.820     -23.220     -25.730     -27.210
          71  1965049.7      1965.0     -15.940     -18.140     -19.310     -21.590     -22.150     -23.550     -25.490     -26.950
          72  1948286.5      1948.3     -15.980     -18.160     -19.230     -21.610     -22.160     -23.490     -25.680     -27.100
          73  1934104.0      1934.1     -15.700     -17.850     -19.040     -21.280     -21.890     -23.260     -24.800     -26.220
          74  1917711.5      1917.7     -15.400     -17.490     -18.470     -20.880     -21.200     -22.790     -22.980     -24.780
          75  1901819.1      1901.8     -16.540     -18.650     -19.770     -22.140     -22.740     -24.080     -25.480     -27.070
          76  1896178.6      1896.2     -16.630     -18.760     -19.870     -22.300     -22.880     -24.190     -25.800     -27.450
          77  1881447.8      1881.4     -16.610     -18.820     -19.910     -22.360     -22.930     -24.270     -25.400     -27.100
          78  1869474.7      1869.5     -16.730     -18.870     -20.000     -22.460     -23.080     -24.460     -25.170     -26.920
          79  1856248.6      1856.2     -16.250     -18.220     -19.390     -21.710     -22.220     -23.680     -24.570     -26.440
          80  1837022.4      1837.0     -16.900     -18.890     -20.100     -22.520     -23.130     -24.420     -24.950     -26.510
          81  1821118.0      1821.1     -17.060     -18.940     -20.160     -22.570     -23.220     -24.500     -25.070     -26.560
          82  1803948.3      1803.9     -16.940     -18.760     -20.010     -22.320     -22.930     -24.200     -25.180     -26.830
          83  1789313.4      1789.3     -16.370     -18.140     -19.360     -21.640     -22.320     -23.560     -24.620     -26.440
          84  1770767.5      1770.8     -16.600     -18.350     -19.590     -21.880     -22.650     -23.930     -25.740     -27.400
          85  1757778.4      1757.8     -16.200     -17.860     -19.130     -21.410     -22.150     -23.470     -24.810     -26.420
          86  1740789.2      1740.8     -15.570     -17.070     -18.470     -20.570     -21.330     -22.820     -24.810     -26.430
          87  1725800.1      1725.8     -15.750     -17.170     -18.560     -20.630     -21.480     -22.840     -23.810     -25.350
          88  1708630.5      1708.6     -15.260     -16.600     -18.000     -20.060     -20.890     -22.220     -22.840     -24.390
          89  1692619.4      1692.6     -14.940     -16.260     -17.670     -19.710     -20.500     -21.870     -22.790     -24.400
          90  1677453.1      1677.5     -14.300     -15.570     -16.970     -19.020     -19.750     -21.090     -21.170     -22.740
          91  1660286.9      1660.3     -13.690     -14.880     -16.210     -18.300     -19.100     -20.420     -20.390     -21.910
          92  1645189.7      1645.2     -13.210     -14.310     -15.710     -17.680     -18.490     -19.770     -19.810     -21.380
          93  1629592.5      1629.6     -12.520     -13.640     -15.020     -17.000     -17.770     -19.070     -20.470     -22.300
          94  1610503.5      1610.5     -13.170     -14.340     -15.660     -17.690     -18.240     -19.400     -19.490     -21.030
          95  1598955.1      1599.0     -11.990     -13.220     -14.490     -16.490     -16.990     -18.100     -18.220     -19.730
          96  1584939.4      1584.9     -11.640     -12.900     -14.160     -16.110     -16.600     -17.680     -17.910     -19.360
          97  1572080.0      1572.1     -11.370     -12.610     -13.900     -15.890     -16.200     -17.410     -17.770     -19.220
          98  1556743.2      1556.7     -10.990     -12.220     -13.500     -15.420     -15.750     -16.980     -17.490     -19.050
          99  1542369.9      1542.4     -10.590     -11.740     -13.000     -14.830     -15.220     -16.320     -16.490     -18.140
         100  1530021.0      1530.0     -10.200     -11.430     -12.700     -14.690     -15.010     -15.900     -16.420     -18.420
         101  1526521.0      1526.5     -10.230     -11.510     -12.760     -14.780     -15.110     -15.930     -16.430     -18.430
         102  1494484.5      1494.5     -10.200     -11.520     -12.780     -14.800     -15.000     -15.820     -16.010     -18.030
         103  1483717.0      1483.7     -10.270     -11.600     -12.840     -14.820     -15.030     -15.910     -16.090     -18.110
         104  1472449.4      1472.4     -10.270     -11.530     -12.760     -14.450     -14.760     -15.900     -15.580     -17.420
         105  1458264.0      1458.3     -10.550     -11.810     -13.080     -14.750     -15.060     -16.250     -16.380     -18.040
         106  1445921.2      1445.9     -10.490     -11.750     -13.020     -14.610     -15.050     -16.150     -16.000     -17.610
         107  1430235.9      1430.2     -10.600     -11.800     -13.230     -14.560     -15.070     -15.990     -15.690     -17.160
         108  1416043.7      1416.0     -10.770     -11.900     -13.380     -14.250     -14.860     -15.760     -15.260     -16.760
         109  1404001.0      1404.0     -10.600     -11.580     -13.090     -14.330     -15.060     -15.920     -15.120     -16.620
         110  1385755.4      1385.8     -11.260     -12.150     -13.690     -14.990     -15.930     -16.690     -17.900     -19.710
         111  1370992.2      1371.0     -11.100     -11.950     -13.530     -14.690     -15.700     -16.390     -17.010     -18.670
         112  1355268.7      1355.3     -10.640     -11.450     -12.990     -14.050     -15.010     -15.640     -16.010     -17.560
         113  1337087.1      1337.1     -10.810     -11.630     -13.210     -14.280     -15.210     -15.850     -15.850     -17.370
         114  1322405.6      1322.4     -10.600     -11.440     -12.960     -13.980     -14.960     -15.570     -15.630     -17.070
         115  1306293.9      1306.3     -10.850     -11.660     -13.220     -14.190     -15.190     -15.790     -15.850     -17.300
         116  1289960.1      1290.0     -10.740     -11.560     -13.190     -14.120     -15.120     -15.690     -16.010     -17.430
         117  1273346.9      1273.3     -10.110     -10.930     -12.580     -13.650     -14.410     -15.280     -16.130     -17.510
         118  1257032.2      1257.0     -11.050     -11.920     -13.510     -14.570     -15.420     -16.030     -16.920     -18.380
         119  1241717.6      1241.7     -11.120     -12.030     -13.620     -14.700     -15.570     -16.160     -17.140     -18.580
         120  1226403.0      1226.4     -10.930     -11.760     -13.400     -14.520     -15.390     -15.980     -16.680     -18.110
         121  1214289.7      1214.3     -10.650     -11.600     -13.130     -14.280     -15.130     -15.650     -16.110     -17.420
         122  1193956.0      1194.0     -10.730     -11.740     -13.220     -14.370     -15.240     -15.670     -15.940     -17.310
         123  1177844.3      1177.8     -10.300     -11.320     -12.810     -13.980     -14.840     -15.230     -15.160     -16.570
         124  1162455.6      1162.5      -9.490     -10.430     -11.920     -13.250     -14.030     -14.490     -14.270     -15.630
         125  1145066.9      1145.1      -9.820     -10.710     -12.150     -13.510     -14.420     -14.760     -14.560     -16.010
         126  1134207.0      1134.2      -9.430     -10.300     -11.710     -13.120     -13.960     -14.380     -14.260     -15.730
         127  1120634.0      1120.6      -8.900      -9.720     -11.130     -12.580     -13.370     -13.820     -13.790     -15.290
         128  1112774.1      1112.8      -8.900      -9.700     -11.120     -12.550     -13.390     -13.810     -13.610     -15.090
         129  1094385.5      1094.4      -7.740      -8.480      -9.820     -11.190     -11.890     -12.490     -12.110     -13.570
         130  1080496.7      1080.5      -7.710      -8.480      -9.820     -11.140     -11.890     -12.310     -12.050     -13.460
         131  1064385.1      1064.4      -7.150      -7.960      -9.250     -10.570     -11.300     -11.600     -11.570     -12.890
         132  1048051.3      1048.1      -6.590      -7.490      -8.680      -9.980     -10.610     -10.920     -11.050     -12.280
         133  1032438.1      1032.4      -6.510      -7.440      -8.560      -9.910     -10.510     -10.790     -11.230     -12.520
         134  1016123.4      1016.1      -6.060      -7.070      -8.090      -9.410     -10.010     -10.220     -10.710     -12.020
         135   999308.8       999.3      -5.660      -6.610      -7.590      -8.770      -9.410      -9.550      -9.530     -10.630
         136   985994.1       986.0      -4.610      -5.470      -6.370      -7.510      -8.000      -8.180      -8.100      -9.070
         137   966520.6       966.5      -4.850      -5.650      -6.480      -7.620      -8.160      -8.300      -8.100      -9.170
         138   951547.1       951.6      -4.490      -5.290      -6.040      -7.090      -7.650      -7.760      -7.500      -8.560
         139   935545.7       935.6      -3.940      -4.590      -5.250      -6.280      -6.750      -6.950      -6.750      -7.790
         140   915309.0       915.3      -3.570      -4.100      -4.670      -5.640      -6.070      -6.180      -6.090      -7.090
         141   904072.3       904.1      -3.100      -3.510      -4.020      -4.910      -5.350      -5.310      -5.100      -6.070
         142   885348.8       885.4      -2.820      -3.150      -3.570      -4.410      -4.790      -4.750      -4.750      -5.760
         143   872137.3       872.1      -2.530      -2.820      -3.120      -3.980      -4.300      -4.300      -5.180      -6.280
         144   853749.6       853.8      -1.970      -2.350      -2.560      -3.220      -3.590      -3.640      -2.510      -3.380
         145   842456.6       842.5      -2.130      -2.550      -2.750      -3.130      -3.580      -3.590      -2.560      -3.470
         146   827530.8       827.5      -2.090      -2.480      -2.660      -2.860      -3.380      -3.360      -2.330      -3.270
         147   813179.2       813.2      -1.740      -2.130      -2.240      -2.390      -2.890      -2.840      -1.760      -2.750
         148   799253.4       799.3      -1.330      -1.680      -1.730      -1.850      -2.390      -2.300      -1.030      -1.990
         149   785401.8       785.4      -0.750      -1.030      -0.960      -1.190      -1.640      -1.380      -0.040      -1.020
         150   773476.0       773.5      -0.280      -0.650      -0.670      -0.570      -1.260      -1.010      -0.080      -1.280
         151   766976.0       767.0     999.000     999.000     999.000     999.000     999.000     999.000      -1.030      -2.320
